   1.0000000   0.0000000   0.0000000   1.0000000       0.000       0.000
   1.0000000   0.0000000   0.0000000   1.0000000       0.000       0.000
   1.0000000   0.0000000   0.0000000   1.0000000       0.000       0.000
   1.0000000   0.0000000   0.0000000   1.0000000       0.000       0.000
   1.0000000   0.0000000   0.0000000   1.0000000       0.000       0.000
   1.0000000   0.0000000   0.0000000   1.0000000       0.000       0.000
   1.0000000   0.0000000   0.0000000   1.0000000       0.000       0.000
   1.0000000   0.0000000   0.0000000   1.0000000       0.000       0.000
   1.0000000   0.0000000   0.0000000   1.0000000       0.000       0.000
   1.0000000   0.0000000   0.0000000   1.0000000       0.000       0.000
   1.0000000   0.0000000   0.0000000   1.0000000       0.000       0.000
   1.0000000   0.0000000   0.0000000   1.0000000       0.000       0.000
   1.0000000   0.0000000   0.0000000   1.0000000       0.000       0.000
   1.0000000   0.0000000   0.0000000   1.0000000       0.000       0.000
   1.0000000   0.0000000   0.0000000   1.0000000       0.000       0.000
   1.0000000   0.0000000   0.0000000   1.0000000       0.000       0.000
   1.0000000   0.0000000   0.0000000   1.0000000       0.000       0.000
   1.0000000   0.0000000   0.0000000   1.0000000       0.000       0.000
   1.0000000   0.0000000   0.0000000   1.0000000       0.000       0.000
   1.0000000   0.0000000   0.0000000   1.0000000       0.000       0.000
   1.0000000   0.0000000   0.0000000   1.0000000       0.000       0.000
   1.0000000   0.0000000   0.0000000   1.0000000       0.000       0.000
   1.0000000   0.0000000   0.0000000   1.0000000       0.000       0.000
   1.0000000   0.0000000   0.0000000   1.0000000       0.000       0.000
   1.0000000   0.0000000   0.0000000   1.0000000       0.000       0.000
   1.0000000   0.0000000   0.0000000   1.0000000       0.000       0.000
   1.0000000   0.0000000   0.0000000   1.0000000       0.000       0.000
   1.0000000   0.0000000   0.0000000   1.0000000       0.000       0.000
   1.0000000   0.0000000   0.0000000   1.0000000       0.000       0.000
   1.0000000   0.0000000   0.0000000   1.0000000       0.000       0.000
   1.0000000   0.0000000   0.0000000   1.0000000       0.000       0.000
   1.0000000   0.0000000   0.0000000   1.0000000       0.000       0.000
   1.0000000   0.0000000   0.0000000   1.0000000       0.000       0.000
   1.0000000   0.0000000   0.0000000   1.0000000       0.000       0.000
   1.0000000   0.0000000   0.0000000   1.0000000       0.000       0.000
   1.0000000   0.0000000   0.0000000   1.0000000       0.000       0.000
   1.0000000   0.0000000   0.0000000   1.0000000       0.000       0.000
